time,altitude,velocity,acceleration,drag coefficient
0,0,0,22.722,1.4051
0.01,0.0011361,0.22722,114.3,0.93571
0.02,0.0091249,1.3706,117.02,0.63328
0.03,0.028685,2.5415,118.9,0.56797
0.04,0.060048,3.7312,119.58,0.53357
0.05,0.10334,4.9277,119.05,0.51111
0.06,0.15857,6.1189,118.52,0.49489
0.07,0.22569,7.3048,117.99,0.48238
0.08,0.30464,8.4853,117.46,0.4723
0.09,0.39537,9.6606,116.92,0.46392
0.1,0.49782,10.83,116.39,0.4568
0.11,0.61195,11.995,115.85,0.45063
0.12,0.7377,13.154,115.31,0.44598
0.13,0.875,14.308,114.77,0.44196
0.14,1.0238,15.456,114.23,0.43836
0.15,1.1841,16.599,113.68,0.4351
0.16,1.3558,17.736,113.14,0.43214
0.17,1.5388,18.868,112.59,0.42944
0.18,1.7331,19.995,112.04,0.42695
0.19,1.9387,21.116,111.66,0.42465
0.2,2.1554,22.233,112.33,0.42251
0.21,2.3834,23.357,113.18,0.42051
0.22,2.6226,24.489,114.02,0.41861
0.235,3.0028,26.203,115.46,0.41596
0.2575,3.6216,28.805,114.96,0.41236
0.29125,4.6592,32.681,113.76,0.40777
0.34125,6.4357,38.383,114.38,0.40229
0.39125,8.4981,44.115,111.88,0.39891
0.44125,10.844,49.72,111.81,0.39966
0.49125,13.47,55.322,112.28,0.4005
0.54125,16.377,60.946,112.72,0.40144
0.59125,19.565,66.592,112.94,0.40248
0.64125,23.036,72.248,112.76,0.40362
0.69125,26.79,77.895,112.55,0.40486
0.74125,30.825,83.531,112.31,0.40619
0.79125,35.142,89.153,111.87,0.40761
0.84125,39.74,94.753,111.27,0.40914
0.89125,44.617,100.32,110.64,0.41075
0.94125,49.772,105.86,109.98,0.41246
0.99125,55.202,111.36,109.29,0.41426
1.0413,60.907,116.83,108.59,0.41615
1.0913,66.884,122.26,107.99,0.41814
1.1413,73.133,127.67,107.38,0.42022
1.1913,79.65,133.04,106.74,0.4224
1.2413,86.436,138.37,105.98,0.42467
1.2913,93.487,143.67,104.83,0.42704
1.3413,100.8,148.91,103.6,0.42949
1.3913,108.38,154.09,102.34,0.43203
1.4413,116.21,159.2,101.05,0.43466
1.4913,124.3,164.25,99.756,0.43736
1.5413,132.63,169.24,98.491,0.44015
1.5913,141.22,174.16,97.196,0.44303
1.6413,150.05,179.01,95.869,0.44599
1.6913,159.12,183.79,94.514,0.44903
1.7413,168.42,188.51,92.779,0.45215
1.7913,177.97,193.14,90.506,0.45535
1.8413,187.74,197.66,88.406,0.45859
1.8913,197.73,202.07,87.407,0.46189
1.9413,207.94,206.43,86.548,0.46529
1.9913,218.37,210.74,82.53,0.46879
2.0413,229.01,214.86,74.317,0.47226
2.0913,239.85,218.56,63.025,0.47551
2.1413,250.85,221.7,49.125,0.47837
2.1913,262,224.15,38.186,0.48066
2.2413,273.26,226.05,28.121,0.48249
2.2913,284.59,227.45,20.835,0.48387
2.3412,295.99,228.49,13.954,0.48491
2.3912,307.43,229.18,7.2963,0.48562
2.4412,318.9,229.55,0.83639,0.48602
2.4912,330.38,229.59,-5.5519,0.48609
2.5412,341.85,229.32,-11.816,0.48585
2.5912,353.3,228.73,-17.149,0.4853
2.6412,364.72,227.88,-22.107,0.48449
2.6912,376.09,226.78,-26.233,0.48345
2.7412,387.39,225.48,-28.962,0.48223
2.7912,398.63,224.04,-29.776,0.48089
2.8412,409.8,222.56,-30.387,0.47953
2.8912,420.89,221.05,-30.995,0.47817
2.9412,431.9,219.51,-31.601,0.4768
2.9912,442.84,217.94,-31.861,0.47542
3.0412,453.69,216.36,-31.472,0.47405
3.0912,464.47,214.8,-31.077,0.47271
3.1412,475.17,213.25,-30.692,0.47141
3.1912,485.8,211.73,-30.317,0.47015
3.2412,496.35,210.22,-29.951,0.46892
3.2912,506.82,208.73,-29.596,0.46772
3.3412,517.22,207.26,-29.25,0.46654
3.3912,527.55,205.81,-28.912,0.4654
3.4412,537.8,204.37,-28.582,0.46429
3.4912,547.98,202.95,-28.261,0.4632
3.5412,558.1,201.54,-27.946,0.46214
3.5912,568.14,200.15,-27.64,0.4611
3.6412,578.11,198.78,-27.34,0.46008
3.6912,588.02,197.42,-27.047,0.45909
3.7412,597.85,196.07,-26.761,0.45812
3.7912,607.62,194.74,-26.481,0.45717
3.8412,617.33,193.43,-26.207,0.45624
3.8912,626.97,192.12,-25.939,0.45534
3.9412,636.54,190.83,-25.677,0.45445
3.9912,646.05,189.55,-25.421,0.45358
4.0412,655.5,188.29,-25.17,0.45272
4.0912,664.88,187.04,-24.924,0.45189
4.1412,674.2,185.8,-24.684,0.45107
4.1912,683.46,184.57,-24.448,0.45027
4.2412,692.66,183.35,-24.218,0.44948
4.2912,701.79,182.15,-23.991,0.44871
4.3412,710.87,180.95,-23.77,0.44795
4.3912,719.89,179.77,-23.553,0.44721
4.4412,728.85,178.6,-23.34,0.44648
4.4912,737.75,177.44,-23.131,0.44577
4.5412,746.59,176.28,-22.926,0.44506
4.5912,755.38,175.14,-22.726,0.44438
4.6412,764.11,174.01,-22.529,0.4437
4.6912,772.78,172.89,-22.336,0.44303
4.7412,781.4,171.78,-22.146,0.44238
4.7912,789.96,170.68,-21.96,0.44174
4.8412,798.46,169.58,-21.777,0.44111
4.8912,806.92,168.5,-21.598,0.44049
4.9412,815.31,167.42,-21.422,0.43988
4.9912,823.66,166.36,-21.249,0.43928
5.0412,831.95,165.3,-21.079,0.43869
5.0912,840.19,164.25,-20.913,0.43812
5.1412,848.38,163.21,-20.749,0.43755
5.1912,856.51,162.17,-20.588,0.43699
5.2412,864.59,161.15,-20.43,0.43644
5.2912,872.62,160.13,-20.274,0.43589
5.3412,880.61,159.12,-20.122,0.43536
5.3912,888.54,158.12,-19.972,0.43484
5.4412,896.42,157.12,-19.824,0.43432
5.4912,904.25,156.13,-19.679,0.43381
5.5412,912.03,155.15,-19.536,0.43331
5.5912,919.76,154.18,-19.396,0.43282
5.6412,927.45,153.21,-19.258,0.43233
5.6912,935.09,152.26,-19.122,0.43185
5.7412,942.67,151.3,-18.989,0.43138
5.7912,950.22,150.36,-18.857,0.43092
5.8412,957.71,149.42,-18.728,0.43046
5.8912,965.16,148.48,-18.601,0.43001
5.9412,972.56,147.56,-18.476,0.42957
5.9912,979.91,146.64,-18.353,0.42913
6.0412,987.22,145.72,-18.231,0.4287
6.0912,994.49,144.81,-18.112,0.42827
6.1412,1001.7,143.91,-17.995,0.42785
6.1912,1008.9,143.01,-17.879,0.42744
6.2412,1016,142.12,-17.766,0.42703
6.2912,1023.1,141.24,-17.654,0.42663
6.3412,1030.1,140.36,-17.544,0.42623
6.3912,1037.1,139.48,-17.435,0.42584
6.4412,1044.1,138.61,-17.328,0.42546
6.4912,1051,137.75,-17.223,0.42508
6.5412,1057.9,136.89,-17.119,0.4247
6.5912,1064.7,136.04,-17.017,0.42433
6.6412,1071.5,135.19,-16.916,0.42397
6.6912,1078.2,134.35,-16.817,0.42361
6.7412,1084.9,133.51,-16.719,0.42325
6.7912,1091.5,132.67,-16.623,0.4229
6.8412,1098.2,131.85,-16.528,0.42256
6.8912,1104.7,131.02,-16.435,0.42221
6.9412,1111.3,130.2,-16.342,0.42188
6.9912,1117.8,129.39,-16.251,0.42154
7.0412,1124.2,128.58,-16.162,0.42122
7.0912,1130.6,127.77,-16.073,0.42089
7.1412,1137,126.97,-15.986,0.42057
7.1912,1143.3,126.17,-15.9,0.42026
7.2412,1149.6,125.38,-15.815,0.41994
7.2912,1155.8,124.59,-15.732,0.41964
7.3412,1162.1,123.81,-15.649,0.41933
7.3912,1168.2,123.03,-15.568,0.41903
7.4412,1174.4,122.25,-15.488,0.41873
7.4912,1180.4,121.48,-15.409,0.41844
7.5412,1186.5,120.71,-15.331,0.41815
7.5912,1192.5,119.94,-15.254,0.41786
7.6412,1198.5,119.18,-15.178,0.41758
7.6912,1204.4,118.43,-15.103,0.4173
7.7412,1210.3,117.67,-15.029,0.41703
7.7912,1216.2,116.92,-14.956,0.41675
7.8412,1222,116.18,-14.884,0.41649
7.8912,1227.8,115.43,-14.813,0.41622
7.9412,1233.6,114.7,-14.743,0.41596
7.9912,1239.3,113.96,-14.674,0.4157
8.0412,1245,113.23,-14.606,0.41544
8.0912,1250.6,112.5,-14.538,0.41519
8.1412,1256.2,111.77,-14.472,0.41494
8.1912,1261.8,111.05,-14.406,0.41469
8.2412,1267.3,110.33,-14.341,0.41444
8.2912,1272.8,109.62,-14.277,0.4142
8.3412,1278.3,108.91,-14.214,0.41396
8.3912,1283.7,108.2,-14.152,0.41373
8.4412,1289.1,107.49,-14.09,0.41349
8.4912,1294.5,106.79,-14.03,0.41326
8.5412,1299.8,106.09,-13.97,0.41303
8.5912,1305.1,105.39,-13.91,0.41281
8.6412,1310.3,104.7,-13.852,0.41258
8.6912,1315.5,104.01,-13.794,0.41236
8.7412,1320.7,103.32,-13.737,0.41214
8.7912,1325.9,102.63,-13.681,0.41193
8.8412,1331,101.95,-13.625,0.41172
8.8912,1336.1,101.27,-13.571,0.4115
8.9412,1341.1,100.59,-13.516,0.4113
8.9912,1346.1,99.918,-13.463,0.41109
9.0412,1351.1,99.246,-13.41,0.41089
9.0912,1356.1,98.577,-13.358,0.41068
9.1412,1361,97.91,-13.306,0.41048
9.1912,1365.8,97.246,-13.255,0.41029
9.2412,1370.7,96.584,-13.205,0.41009
9.2912,1375.5,95.925,-13.155,0.4099
9.3412,1380.3,95.269,-13.106,0.40971
9.3912,1385,94.615,-13.058,0.40952
9.4412,1389.7,93.963,-13.01,0.40933
9.4913,1394.4,93.314,-12.962,0.40915
9.5413,1399.1,92.667,-12.916,0.40897
9.5913,1403.7,92.022,-12.869,0.40879
9.6413,1408.3,91.38,-12.824,0.40861
9.6913,1412.8,90.74,-12.779,0.40843
9.7413,1417.4,90.102,-12.734,0.40826
9.7913,1421.8,89.466,-12.69,0.40808
9.8413,1426.3,88.833,-12.647,0.40791
9.8913,1430.7,88.202,-12.604,0.40775
9.9413,1435.1,87.573,-12.561,0.40758
9.9913,1439.5,86.946,-12.52,0.40741
10.041,1443.8,86.321,-12.478,0.40725
10.091,1448.1,85.698,-12.437,0.40709
10.141,1452.4,85.077,-12.397,0.40693
10.191,1456.6,84.458,-12.357,0.40677
10.241,1460.8,83.841,-12.317,0.40661
10.291,1465,83.226,-12.278,0.40646
10.341,1469.2,82.613,-12.24,0.40631
10.391,1473.3,82.002,-12.202,0.40615
10.441,1477.4,81.393,-12.164,0.406
10.491,1481.4,80.786,-12.127,0.40586
10.541,1485.4,80.18,-12.09,0.40571
10.591,1489.4,79.577,-12.054,0.40556
10.641,1493.4,78.975,-12.018,0.40542
10.691,1497.3,78.375,-11.983,0.40528
10.741,1501.2,77.777,-11.948,0.40514
10.791,1505.1,77.18,-11.913,0.405
10.841,1508.9,76.585,-11.879,0.40486
10.891,1512.8,75.992,-11.845,0.40473
10.941,1516.5,75.401,-11.812,0.40459
10.991,1520.3,74.811,-11.779,0.40446
11.041,1524,74.223,-11.747,0.40433
11.091,1527.7,73.636,-11.714,0.4042
11.141,1531.4,73.052,-11.683,0.40407
11.191,1535,72.468,-11.651,0.40394
11.241,1538.6,71.886,-11.62,0.40382
11.291,1542.2,71.306,-11.59,0.40369
11.341,1545.8,70.727,-11.559,0.40357
11.391,1549.3,70.15,-11.529,0.40345
11.441,1552.8,69.575,-11.5,0.40333
11.491,1556.2,69,-11.47,0.40321
11.541,1559.7,68.427,-11.442,0.40309
11.591,1563.1,67.856,-11.413,0.40297
11.641,1566.5,67.286,-11.385,0.40286
11.691,1569.8,66.718,-11.357,0.40275
11.741,1573.1,66.15,-11.33,0.40263
11.791,1576.4,65.585,-11.302,0.40252
11.841,1579.7,65.02,-11.275,0.40241
11.891,1582.9,64.457,-11.249,0.4023
11.941,1586.1,63.895,-11.223,0.4022
11.991,1589.3,63.335,-11.197,0.40209
12.041,1592.5,62.776,-11.171,0.40198
12.091,1595.6,62.218,-11.146,0.40188
12.141,1598.7,61.661,-11.121,0.40178
12.191,1601.8,61.106,-11.096,0.40168
12.241,1604.8,60.551,-11.072,0.40157
12.291,1607.8,59.998,-11.048,0.40148
12.341,1610.8,59.447,-11.024,0.40138
12.391,1613.8,58.896,-11.001,0.40128
12.441,1616.7,58.346,-10.978,0.40118
12.491,1619.6,57.798,-10.955,0.40109
12.541,1622.5,57.251,-10.932,0.401
12.591,1625.3,56.705,-10.91,0.4009
12.641,1628.2,56.16,-10.888,0.40081
12.691,1630.9,55.616,-10.866,0.40072
12.741,1633.7,55.073,-10.845,0.40063
12.791,1636.5,54.532,-10.823,0.40054
12.841,1639.2,53.991,-10.802,0.40046
12.891,1641.9,53.451,-10.782,0.40037
12.941,1644.5,52.913,-10.761,0.40028
12.991,1647.1,52.375,-10.741,0.4002
13.041,1649.7,51.839,-10.721,0.40012
13.091,1652.3,51.303,-10.702,0.40004
13.141,1654.9,50.769,-10.682,0.39995
13.191,1657.4,50.235,-10.663,0.39987
13.241,1659.9,49.702,-10.644,0.3998
13.291,1662.4,49.171,-10.626,0.39972
13.341,1664.8,48.64,-10.608,0.39987
13.391,1667.2,48.11,-10.59,0.4002
13.441,1669.6,47.581,-10.573,0.40053
13.491,1672,47.052,-10.556,0.40087
13.541,1674.3,46.525,-10.54,0.40121
13.591,1676.6,45.999,-10.523,0.40156
13.641,1678.9,45.473,-10.507,0.40191
13.691,1681.2,44.948,-10.491,0.40227
13.741,1683.4,44.424,-10.475,0.40264
13.791,1685.6,43.9,-10.459,0.40302
13.841,1687.8,43.378,-10.444,0.4034
13.891,1690,42.856,-10.429,0.40378
13.941,1692.1,42.335,-10.414,0.40418
13.991,1694.2,41.815,-10.399,0.40458
14.041,1696.3,41.295,-10.384,0.40499
14.091,1698.3,40.776,-10.37,0.40541
14.141,1700.4,40.258,-10.356,0.40584
14.191,1702.4,39.741,-10.341,0.40627
14.241,1704.3,39.224,-10.328,0.40671
14.291,1706.3,38.708,-10.314,0.40716
14.341,1708.2,38.192,-10.3,0.40762
14.391,1710.1,37.678,-10.287,0.40809
14.441,1712,37.164,-10.274,0.40856
14.491,1713.8,36.65,-10.261,0.40905
14.541,1715.6,36.138,-10.249,0.40955
14.591,1717.4,35.625,-10.236,0.41005
14.641,1719.2,35.114,-10.224,0.41057
14.691,1720.9,34.603,-10.212,0.4111
14.741,1722.7,34.093,-10.2,0.41163
14.791,1724.4,33.583,-10.188,0.41218
14.841,1726,33.074,-10.176,0.41274
14.891,1727.7,32.566,-10.165,0.41331
14.941,1729.3,32.058,-10.153,0.4139
14.991,1730.9,31.55,-10.142,0.4145
15.041,1732.4,31.043,-10.132,0.41511
15.091,1734,30.537,-10.121,0.41573
15.141,1735.5,30.031,-10.11,0.41637
15.191,1737,29.526,-10.1,0.41702
15.241,1738.4,29.021,-10.09,0.41769
15.291,1739.9,28.517,-10.08,0.41837
15.341,1741.3,28.013,-10.07,0.41907
15.391,1742.7,27.51,-10.06,0.41979
15.441,1744,27.007,-10.051,0.42052
15.491,1745.4,26.505,-10.041,0.42128
15.541,1746.7,26.003,-10.032,0.42205
15.591,1748,25.502,-10.023,0.42284
15.641,1749.2,25.001,-10.015,0.42365
15.691,1750.5,24.5,-10.006,0.42448
15.741,1751.7,24,-9.9975,0.42534
15.791,1752.9,23.5,-9.9892,0.42622
15.841,1754,23.001,-9.9811,0.42713
15.891,1755.2,22.502,-9.9731,0.42806
15.941,1756.3,22.004,-9.9653,0.42902
15.991,1757.4,21.506,-9.9577,0.43
16.041,1758.4,21.008,-9.9502,0.43102
16.091,1759.5,20.511,-9.9429,0.43207
16.141,1760.5,20.014,-9.9358,0.43315
16.191,1761.5,19.517,-9.9289,0.43427
16.241,1762.4,19.021,-9.9221,0.43542
16.291,1763.4,18.525,-9.9154,0.43662
16.341,1764.3,18.029,-9.909,0.43785
16.391,1765.2,17.534,-9.9027,0.43913
16.441,1766.1,17.039,-9.8965,0.44046
16.491,1766.9,16.544,-9.8906,0.44184
16.541,1767.7,16.05,-9.8847,0.44327
16.591,1768.5,15.556,-9.8791,0.44476
16.641,1769.3,15.062,-9.8736,0.44632
16.691,1770,14.569,-9.8683,0.44794
16.741,1770.7,14.075,-9.8632,0.44963
16.791,1771.4,13.582,-9.8582,0.45169
16.841,1772.1,13.09,-9.8534,0.45391
16.891,1772.7,12.597,-9.8488,0.45624
16.941,1773.3,12.105,-9.8443,0.45868
16.991,1773.9,11.613,-9.84,0.46126
17.041,1774.5,11.121,-9.8359,0.46399
17.091,1775,10.629,-9.8319,0.46687
17.141,1775.6,10.137,-9.8281,0.46993
17.191,1776.1,9.6461,-9.8244,0.47319
17.241,1776.5,9.155,-9.8209,0.47667
17.291,1777,8.664,-9.8176,0.48039
17.341,1777.4,8.1732,-9.8144,0.4844
17.391,1777.8,7.6826,-9.8114,0.48873
17.441,1778.2,7.1921,-9.8086,0.49344
17.491,1778.5,6.7017,-9.8059,0.49858
17.541,1778.8,6.2115,-9.8033,0.50423
17.591,1779.1,5.7214,-9.801,0.51049
17.641,1779.4,5.2314,-9.7988,0.51748
17.691,1779.7,4.7415,-9.7968,0.52539
17.741,1779.9,4.2517,-9.795,0.53444
17.791,1780.1,3.762,-9.7933,0.54497
17.841,1780.3,3.2724,-9.7918,0.55746
17.891,1780.4,2.7828,-9.7905,0.57268
17.941,1780.5,2.2933,-9.7894,0.59191
17.991,1780.6,1.8039,-9.7885,0.61747
18.041,1780.7,1.3145,-9.7877,0.65461
18.091,1780.8,0.82509,-9.7872,0.71638
18.141,1780.8,0.33574,-9.7868,0.85634
18.191,1780.8,-0.1536,-9.7867,0.96887
18.241,1780.8,-0.64292,-9.7863,0.75298
18.295,1780.7,-1.1674,-9.7804,NaN
18.346,1780.7,-1.6674,-9.7679,NaN
18.397,1780.6,-2.1674,-9.7486,NaN
18.449,1780.4,-2.6674,-9.7225,NaN
18.5,1780.3,-3.1674,-9.6895,NaN
18.552,1780.1,-3.6674,-9.6497,NaN
18.604,1779.9,-4.1674,-9.6031,NaN
18.657,1779.7,-4.6674,-9.5497,NaN
18.709,1779.4,-5.1674,-9.4895,NaN
18.762,1779.1,-5.6674,-9.4225,NaN
18.816,1778.8,-6.1674,-9.3486,NaN
18.87,1778.5,-6.6674,-9.2679,NaN
18.924,1778.1,-7.1674,-9.1804,NaN
18.979,1777.7,-7.6674,-9.086,NaN
19.035,1777.2,-8.1674,-8.9849,NaN
19.091,1776.8,-8.6674,-8.8769,NaN
19.148,1776.3,-9.1674,-8.762,NaN
19.206,1775.7,-9.6674,-8.6404,NaN
19.265,1775.1,-10.167,-8.5119,NaN
19.325,1774.5,-10.667,-8.3765,NaN
19.385,1773.8,-11.167,-8.2344,NaN
19.447,1773.1,-11.667,-8.0853,NaN
19.51,1772.4,-12.167,-7.9295,NaN
19.575,1771.6,-12.667,-7.7667,NaN
19.64,1770.7,-13.167,-7.5972,NaN
19.708,1769.8,-13.667,-7.4207,NaN
19.777,1768.9,-14.167,-7.2374,NaN
19.848,1767.8,-14.667,-7.0472,NaN
19.921,1766.8,-15.167,-6.8502,NaN
19.996,1765.6,-15.667,-6.6462,NaN
20.074,1764.4,-16.167,-6.4354,NaN
20.154,1763,-16.667,-6.2176,NaN
20.238,1761.6,-17.167,-5.993,NaN
20.324,1760.1,-17.667,-5.7614,NaN
20.415,1758.5,-18.167,-5.5229,NaN
20.51,1756.8,-18.667,-5.2774,NaN
20.609,1754.9,-19.167,-5.025,NaN
20.714,1752.8,-19.667,-4.7655,NaN
20.825,1750.6,-20.167,-4.4991,NaN
20.944,1748.2,-20.667,-4.2256,NaN
21.07,1745.6,-21.167,-3.9451,NaN
21.207,1742.6,-21.667,-3.6574,NaN
21.356,1739.4,-22.167,-3.3625,NaN
21.519,1735.7,-22.667,-3.0605,NaN
21.701,1731.5,-23.167,-2.7511,NaN
21.906,1726.7,-23.667,-2.4343,NaN
22.143,1721.1,-24.167,-2.1098,NaN
22.424,1714.2,-24.667,-1.7776,NaN
22.772,1705.5,-25.167,-1.4371,NaN
23.232,1693.8,-25.667,-1.0878,NaN
23.732,1680.9,-26.031,-0.72829,NaN
24.232,1667.8,-26.26,-0.45755,NaN
24.732,1654.7,-26.4,-0.28061,NaN
25.232,1641.5,-26.483,-0.16632,NaN
25.732,1628.2,-26.53,-0.093047,NaN
26.232,1614.9,-26.553,-0.046325,NaN
26.732,1601.7,-26.561,-0.016644,NaN
27.232,1588.4,-26.56,0.0021535,NaN
27.732,1575.1,-26.553,0.014025,NaN
28.232,1561.8,-26.542,0.021499,NaN
28.732,1548.6,-26.529,0.026185,NaN
29.232,1535.3,-26.515,0.029107,NaN
29.732,1522,-26.499,0.030912,NaN
30.232,1508.8,-26.483,0.032011,NaN
30.732,1495.6,-26.467,0.032665,NaN
31.232,1482.3,-26.45,0.033303,NaN
31.732,1469.1,-26.433,0.03419,NaN
32.232,1455.9,-26.416,0.034705,NaN
32.732,1442.7,-26.398,0.034986,NaN
33.232,1429.5,-26.381,0.035119,NaN
33.732,1416.3,-26.363,0.03516,NaN
34.232,1403.1,-26.346,0.035142,NaN
34.732,1390,-26.328,0.035088,NaN
35.232,1376.8,-26.311,0.035011,NaN
35.732,1363.7,-26.293,0.034921,NaN
36.232,1350.5,-26.276,0.034821,NaN
36.732,1337.4,-26.258,0.034717,NaN
37.232,1324.3,-26.241,0.03461,NaN
37.732,1311.1,-26.224,0.0345,NaN
38.232,1298,-26.207,0.03439,NaN
38.732,1284.9,-26.189,0.03428,NaN
39.232,1271.8,-26.172,0.03417,NaN
39.732,1258.8,-26.155,0.03406,NaN
40.232,1245.7,-26.138,0.033951,NaN
40.732,1232.6,-26.121,0.033842,NaN
41.232,1219.6,-26.105,0.033733,NaN
41.732,1206.5,-26.088,0.033625,NaN
42.232,1193.5,-26.071,0.033518,NaN
42.732,1180.5,-26.054,0.033411,NaN
43.232,1167.4,-26.038,0.033304,NaN
43.732,1154.4,-26.021,0.033199,NaN
44.232,1141.4,-26.005,0.033093,NaN
44.732,1128.4,-25.988,0.032989,NaN
45.232,1115.4,-25.972,0.032885,NaN
45.732,1102.4,-25.955,0.032781,NaN
46.232,1089.5,-25.939,0.032678,NaN
46.732,1076.5,-25.923,0.032576,NaN
47.232,1063.5,-25.906,0.032474,NaN
47.732,1050.6,-25.89,0.032373,NaN
48.232,1037.7,-25.874,0.032272,NaN
48.732,1024.7,-25.858,0.032172,NaN
49.232,1011.8,-25.842,0.032072,NaN
49.732,998.88,-25.826,0.031973,NaN
50.232,985.97,-25.81,0.03194,NaN
50.732,973.07,-25.794,0.03257,NaN
51.232,960.17,-25.777,0.032921,NaN
51.732,947.29,-25.761,0.033098,NaN
52.232,934.41,-25.744,0.033167,NaN
52.732,921.54,-25.727,0.03317,NaN
53.232,908.68,-25.711,0.033131,NaN
53.732,895.83,-25.694,0.033068,NaN
54.232,882.99,-25.678,0.032988,NaN
54.732,870.16,-25.661,0.032899,NaN
55.232,857.33,-25.645,0.032805,NaN
55.732,844.51,-25.629,0.032707,NaN
56.232,831.7,-25.612,0.032608,NaN
56.732,818.9,-25.596,0.032508,NaN
57.232,806.1,-25.58,0.032407,NaN
57.732,793.32,-25.564,0.032306,NaN
58.232,780.54,-25.548,0.032206,NaN
58.732,767.77,-25.532,0.032105,NaN
59.232,755.01,-25.516,0.032006,NaN
59.732,742.26,-25.5,0.031906,NaN
60.232,729.51,-25.484,0.031807,NaN
60.732,716.77,-25.468,0.031709,NaN
61.232,704.04,-25.452,0.031611,NaN
61.732,691.32,-25.436,0.031514,NaN
62.232,678.6,-25.421,0.031417,NaN
62.732,665.9,-25.405,0.031321,NaN
63.232,653.2,-25.389,0.031225,NaN
63.732,640.51,-25.374,0.031129,NaN
64.232,627.83,-25.358,0.031034,NaN
64.732,615.15,-25.343,0.03094,NaN
65.232,602.48,-25.327,0.030846,NaN
65.732,589.82,-25.312,0.030753,NaN
66.232,577.17,-25.297,0.03066,NaN
66.732,564.53,-25.281,0.030567,NaN
67.232,551.89,-25.266,0.030475,NaN
67.732,539.26,-25.251,0.030384,NaN
68.232,526.64,-25.236,0.030293,NaN
68.732,514.02,-25.221,0.030202,NaN
69.232,501.42,-25.206,0.030112,NaN
69.732,488.82,-25.191,0.030022,NaN
70.232,476.23,-25.175,0.030572,NaN
70.732,463.64,-25.16,0.030951,NaN
71.232,451.07,-25.144,0.031145,NaN
71.732,438.5,-25.129,0.031225,NaN
72.232,425.94,-25.113,0.031237,NaN
72.732,413.39,-25.097,0.031207,NaN
73.232,400.84,-25.082,0.031151,NaN
73.732,388.3,-25.066,0.03108,NaN
74.232,375.78,-25.051,0.030999,NaN
74.732,363.25,-25.035,0.030914,NaN
75.232,350.74,-25.02,0.030825,NaN
75.732,338.23,-25.005,0.030734,NaN
76.232,325.74,-24.989,0.030643,NaN
76.732,313.24,-24.974,0.030551,NaN
77.232,300.76,-24.959,0.03046,NaN
