time,altitude,velocity,acceleration
0.0,0.0,0.0,0.0
0.02,0.0,0.0,116.20014234408472
0.04,0.0,2.3240028468816947,119.9796285996766
0.06,0.04648005693763389,4.723595418875227,118.92964726182598
0.08,0.14095196531513843,7.102188364111747,117.86920428021917
0.1,0.2829957325973734,9.45957244971613,116.7985859734323
0.12,0.472187181591696,11.795544169184776,115.71792262419059
0.14,0.7080980649753915,14.109902621668589,114.62734801486243
0.16,0.9902961174087632,16.402449581965836,113.5269993591583
0.18,1.31834510904808,18.672989569149003,112.41701721753502
0.2,1.69180490043106,20.921329913499704,111.99720301929608
0.22,2.110231498701054,23.161273973885628,113.6723562057427
0.24,2.5734569781787666,25.43472109800048,115.34866747868443
0.26,3.082151400138776,27.74169444757417,115.53672034106089
0.28,3.6369852890902594,30.052428854395387,114.4994234025805
0.3,4.238033866178167,32.342417322447,113.73491328337866
0.32,4.884882212627107,34.61711558811457,114.09519008515986
0.34,5.577224524389399,36.89901938981777,114.45156768432253
0.36,6.315204912185754,39.18805074350422,114.80319223981616
0.38,7.098965927055838,41.48411458830054,114.35535562557267
0.4,7.928648218821849,43.77122170081199,112.70603381779121
0.42,8.804072652838089,46.02534237716782,111.4098779833878
0.44,9.724579500381445,48.25353993683557,111.566731837734
0.46,10.689650299118156,50.484874573590254,111.71953214684912
0.48,11.699347790589961,52.71926521652723,111.86669206964271
0.5,12.753733094920506,54.95659905792009,112.00806499550743
0.52,13.852865076078908,57.196760357830236,112.14350552545089
0.54,14.996800283235512,59.43963046833925,112.27286806185029
0.56,16.185592892602298,61.68508782957626,112.39600690168426
0.58,17.419294649193823,63.933007967609946,112.5128086333018
0.6,18.697954808546022,66.18326414027598,112.62344194659973
0.62,20.021620091351544,68.43573297920797,112.49420857014442
0.64,21.390334750935704,70.68561715061085,112.35854090796148
0.66,22.804047093947922,72.93278796877009,112.21715279662195
0.68,24.262702853323322,75.17713102470252,112.07040715162603
0.7000000000000001,25.76624547381737,77.41853916773503,111.91866613563532
0.72,27.314616257172073,79.65691249044774,111.76229144562306
0.74,28.90775450698103,81.89215831936019,111.60164407023366
0.76,30.54559767336823,84.12419120076487,111.43692581725381
0.78,32.22808149738353,86.35292971710994,111.26732958383363
0.8,33.955140091725724,88.57827630878661,111.0193582446535
0.8200000000000001,35.72670561790146,90.79866347367968,110.71557587920577
0.84,37.542678887375054,93.0129749912638,110.4030260802073
0.86,39.40293838720033,95.22103551286794,110.08066109016563
0.88,41.30735909745769,97.42264873467126,109.74735693769819
0.9,43.255812072151116,99.61759587342522,109.40200971647526
0.92,45.24816398961962,101.80563606775472,109.04353734067875
0.9400000000000001,47.284276710974716,103.98650681456829,108.67140305980847
0.96,49.36400684726608,106.15993487576446,108.28863113885645
0.98,51.487205544781375,108.32570749854159,107.89968265508435
1.0,53.653719694752205,110.48370115164327,107.50895164236624
1.02,55.86339371778507,112.6338801844906,107.12075160498954
1.04,58.116071321474884,114.77629521659038,106.7393135458027
1.06,60.411597225806695,116.91108148750644,106.36878665009789
1.08,62.749818855556825,119.03845722050839,106.06188233377274
1.1,65.13058799996699,121.15969486718384,105.79501403189511
1.12,67.55378189731067,123.27559514782175,105.55069693614885
1.1400000000000001,70.0192938002671,125.38660908654472,105.32248414930093
1.16,72.52702598199801,127.49305876953075,105.09539044751865
1.18,75.07688715738863,129.59496657848112,104.8542770969901
1.2,77.66878648895825,131.69205212042093,104.58415265408719
1.22,80.30262753136667,133.78373517350266,104.27018703517606
1.24,82.97830223483672,135.8691389142062,103.89775709829091
1.26,85.69568501312084,137.947094056172,103.4525235539412
1.28,88.45462689424427,140.01614452725082,102.73568611147215
1.3,91.25494978478929,142.07085824948027,101.90824466667392
1.32,94.0963669497789,144.10902314281375,100.97587125627693
1.34,96.97854741263517,146.1285405679393,99.96273969701308
1.36,99.90111822399395,148.12779536187955,98.89920313254652
1.3800000000000001,102.86367413123153,150.10577942453048,97.81425016837572
1.4000000000000001,105.86578971972214,152.062064427898,96.73520933448897
1.42,108.9070310082801,153.99676861458778,95.68763544293981
1.44,111.98696638057186,155.91052132344657,94.69531756576818
1.46,115.10517680704079,157.80442767476194,93.7803909905277
1.48,118.26126536053603,159.6800354945725,92.96353604980452
1.5,121.45486607042749,161.5393062155686,92.26424855548372
1.52,124.68565219473885,163.38459118667825,91.7213298532768
1.54,127.95334401847242,165.2190177837438,91.3109037486702
1.56,131.2577243741473,167.0452358587172,90.99700917124561
1.58,134.59862909132164,168.8651760421421,90.75794308824631
1.6,137.97593261216448,170.68033490390704,90.57286660906426
1.62,141.38953931024264,172.49179223608832,90.42147066065009
1.6400000000000001,144.83937515496442,174.3002216493013,90.28375739936008
1.6600000000000001,148.32537958795044,176.1058967972885,90.13989375018124
1.68,151.8474975238962,177.9086946722921,89.97013283051778
1.7,155.40567141734206,179.70809732890248,89.75480117075372
1.72,158.99983336392012,181.50319335231757,89.47435082809318
1.74,162.62989723096646,183.29268036887942,89.10947583160865
1.76,166.29575083834405,185.0748698855116,88.39936275672244
1.78,169.99724823605428,186.84285714064603,87.4630694436168
1.8,173.73410537886718,188.59211852951836,86.38838261492256
1.82,177.50594774945756,190.3198861818168,85.16160344019204
1.84,181.3123454730939,192.02311825062063,83.77076773194536
1.86,185.1528078381063,193.69853360525954,82.20635388481334
1.8800000000000001,189.0267785102115,195.3426606829558,80.91363533366486
1.9000000000000001,192.9336317238706,196.9609333896291,79.58931543240966
1.92,196.87285039166318,198.5527196982773,78.0735793395903
1.94,200.84390478562872,200.1141912850691,76.36235495593805
1.96,204.8461886113301,201.64143838418786,74.6053063259563
1.98,208.87901737901385,203.133544510707,74.61621772061757
2.0,212.941688269228,204.62586886511934,73.89277231286728
2.02,217.03420564653038,206.10372431137668,70.9614162491646
2.04,221.15628013275793,207.52295263635997,68.02072675856343
2.06,225.30673918548513,208.88336717153123,65.07095058141611
2.08,229.48440652891574,210.18478618315956,62.11233729590255
2.1,233.68810225257894,211.4270329290776,58.21846002347368
2.12,237.9166429111605,212.59140212954708,52.591240748676185
2.14,242.16847095375144,213.6432269445206,46.94958950922432
2.16,246.44133549264185,214.58221873470507,41.45490555467766
2.18,250.73297986733596,215.4113168457986,37.39306657180057
2.2,255.04120620425192,216.15917817723462,33.32267666767211
2.22,259.36438976779664,216.82563171058806,29.244238049425377
2.24,263.7009024020084,217.41051647157656,25.15825652315742
2.2600000000000002,268.04911273143995,217.9136816020397,21.065241290635548
2.2800000000000002,272.4073863634807,218.3349864278524,18.1978063247985
2.3000000000000003,276.77408609203775,218.69894255434838,15.543577484516698
2.32,281.1480649431247,219.00981410403872,12.885535922484214
2.34,285.5282612252055,219.2675248224884,10.223896982267695
2.36,289.91361172165523,219.47200276213377,7.558877089149659
2.38,294.3030517768979,219.62318030391677,4.890693692791471
2.4,298.6955153829762,219.7209941777726,2.282240932310387
2.42,303.08993526653165,219.7666389964188,-0.27757936991381094
2.44,307.48526804646,219.76108740902052,-2.8398156169031257
2.46,311.8804897946404,219.70429109668245,-5.404265434668179
2.48,316.27457561657405,219.59620578798908,-7.970725773929855
2.5,320.6664997323338,219.43679127251048,-10.53899296310622
2.52,325.05523555778404,219.22601141324836,-13.1088627616665
2.54,329.43975578604903,218.96383415801503,-15.680130413822976
2.56,333.81903246920933,218.65023154973858,-18.252590702531435
2.58,338.1920371002041,218.28517973568796,-20.75289107011537
2.6,342.55774069491787,217.87012191428565,-22.839385562909076
2.62,346.91514313320357,217.41333420302746,-24.92639311781998
2.64,351.2634098172641,216.91480634067105,-27.013778169620302
2.66,355.60170594407754,216.37453077727864,-29.10140501227098
2.68,359.9291965596231,215.7925026770332,-31.18913782826108
2.7,364.24504661316377,215.168719920468,-33.045009981036536
2.72,368.5484210115731,214.50781972084727,-34.468191991637795
2.74,372.83857740599007,213.8184558810145,-35.891374002239054
2.7600000000000002,377.11494652361034,213.10062840096973,-37.31455601284032
2.7800000000000002,381.3769590916297,212.3543372807129,-37.77039108778394
2.8000000000000003,385.62404583724395,211.59892945895723,-38.17531316611401
2.82,389.8560244264231,210.83542319563495,-38.58023524444407
2.84,394.0727328903358,210.06381849074606,-38.985157322774135
2.86,398.27400926015076,209.28411534429057,-39.3900794011042
2.88,402.4596915670366,208.49631375626848,-39.79500147943427
2.9,406.62961784216196,207.70041372667978,-40.199923557764336
2.92,410.7836261166956,206.8964152555245,-40.6048456360944
2.94,414.9215544218061,206.0843183428026,-41.00976771442448
2.96,419.04324078866216,205.2641229885141,-41.41468979275454
2.98,423.14852324843247,204.43582919265899,-41.819611871084604
3.0,427.23723983228564,203.59943695523728,-42.22453394941468
3.02,431.3092285713904,202.75494627624897,-42.22453394941468
3.04,435.3643274969154,201.9104555972607,-42.22453394941468
3.06,439.4025366088606,201.0659649182724,-42.22453394941468
3.08,443.423855907226,200.22147423928413,-42.22453394941468
3.1,447.42828539201173,199.37698356029586,-42.22453394941468
3.12,451.41582506321765,198.53249288130758,-41.42110276684743
3.14,455.3864749208438,197.70407082597063,-40.3909716276246
3.16,459.3405563373632,196.89625139341814,-39.44447162787347
3.18,463.2784813652315,196.10736196086066,-38.580676732671265
3.2,467.20062860444875,195.33574842620723,-37.79173393789207
3.22,471.1073435729729,194.57991374744938,-37.07061629781185
3.24,474.9989418479219,193.83850142149313,-36.41115833379411
3.2600000000000002,478.8757118763518,193.11027825481725,-35.807930213893265
3.2800000000000002,482.73791744144813,192.39411965053938,-35.25613009403986
3.3000000000000003,486.5857998344589,191.6889970486586,-34.75149443061765
3.3200000000000003,490.41957977543206,190.99396716004625,-34.29022289968029
3.34,494.23945911863296,190.30816270205264,-33.868915203979455
3.36,498.045622372674,189.63078439797306,-33.484517610412894
3.38,501.8382380606335,188.9610940457648,-33.13427749577071
3.4,505.6174599415488,188.2984084958494,-32.81570451759674
3.42,509.38342811146583,187.64209440549746,-32.526537292733884
3.44,513.1362699995758,186.9915636596428,-32.26471467587218
3.46,516.8761012727687,186.34626936612534,-32.02835089701136
3.48,520.6030266600911,185.70570234818513,-31.815713949861717
3.5,524.3171407070548,185.06938806918788,-31.62520673018129
3.52,528.0185284684386,184.43688393458424,-31.45535050949414
3.54,531.7072661471303,183.80777692439437,-31.304770399869255
3.56,535.3834216856183,183.181681516397,-31.172182522801656
3.58,539.0470553159462,182.55823786594095,-31.05638264232811
3.6,542.698220073265,181.9371102130944,-30.956236061363626
3.62,546.3369622775269,181.31798549186712,-30.870668612465046
3.64,549.9633219873642,180.70057211961782,-30.798658601081485
3.66,553.5773334297565,180.0845989475962,-30.739229581845144
3.68,557.1790254087085,179.4698143559593,-30.691443867393872
3.7,560.7684216958277,178.85598547861142,-30.654396685242382
3.72,564.3455414053999,178.24289754490655,-30.627210911849595
3.74,567.9103993562981,177.63035332666956,-30.609032324681486
3.7600000000000002,571.4630064228314,177.01817268017592,-30.599025323078415
3.7800000000000002,575.0033698764349,176.40619217371435,-30.59636907737451
3.8000000000000003,578.5314937199092,175.79426479216684,-30.600254073203118
3.8200000000000003,582.0473790157525,175.18225971070277,-30.60987902443157
3.84,585.5510242099666,174.57006213021413,-30.624448133843217
3.86,589.0424254525709,173.95757316753725,-30.643168685633796
3.88,592.5215769159216,173.34470979382456,-30.665248958101863
3.9,595.9884711117982,172.73140481466254,-30.68989644865495
3.92,599.4430992080914,172.11760688568944,-30.716316406474135
3.94,602.8854513458052,171.50328055755995,-30.7437106709148
3.96,606.3155169569565,170.88840634414166,-30.771276815993097
3.98,609.7332850838393,170.2729808078218,-30.798207603128866
4.0,613.1387446999958,169.6570166557592,-30.823690745690044
4.0200000000000005,616.5318850331109,169.0405428408454,-30.84690898980795
4.04,619.9126958899278,168.42360466104924,-30.86704051640001
4.0600000000000005,623.2811679831487,167.80626385072125,-30.883259669333974
4.08,626.6372932601631,167.18859865733458,-30.894738014182458
4.1,629.9810652333098,166.57070389705092,-30.900645731035652
4.12,633.3124793112507,165.9526909824302,-30.900153343349913
4.14,636.6315331308994,165.3346879155632,-30.892433782804673
4.16,639.9382268892106,164.7168392399071,-30.876664787614317
4.18,643.2325636740087,164.09930594415482,-30.852031628702377
4.2,646.5145497928918,163.48226531158076,-30.81773015460562
4.22,649.7841950991234,162.86591070848866,-30.772970141961345
4.24,653.0415133132932,162.25045130564942,-30.71697893398187
4.26,656.2865223394061,161.63611172696977,-30.64900534448911
4.28,659.5192445739456,161.02313162008,-30.568323799939463
4.3,662.7397072063471,160.41176514408122,-30.474238686501224
4.32,665.9479425092287,159.80228037035118,-30.36608886375813
4.34,669.1439881166357,159.19495859307602,-30.243261320705166
4.36,672.3278872884972,158.59009336666193,-30.105759611641687
4.38,675.4996891558304,157.9879781744291,-29.954525067461468
4.4,678.659448719319,157.38888767307986,-29.79058845403371
4.42,681.8072264727806,156.79307590399918,-29.614978962062708
4.44,684.9430879908606,156.20077632475792,-29.428718081438248
4.46,688.0671035173558,155.61220196312917,-29.232814369159797
4.48,691.1793475566184,155.02754567574598,-29.028258764172243
4.5,694.2798984701333,154.44698050046253,-28.81602045131696
4.5200000000000005,697.3688380801425,153.87066009143618,-28.597043269796252
4.54,700.4462512819712,153.29871922604025,-28.372242654135462
4.5600000000000005,703.512225666492,152.73127437295753,-28.14250308932406
4.58,706.5668511539511,152.16842431117104,-27.908676056628117
4.6000000000000005,709.6102196401746,151.61025079003846,-27.67157844245466
4.62,712.6424246559753,151.05681922118936,-27.431991379555463
4.64,715.6635610403991,150.50817939359825,-27.190659487706164
4.66,718.6737246282711,149.96436620384412,-26.948290479698414
4.68,721.673011952348,149.42540039425015,-26.705555097940824
4.7,724.661519960233,148.89128929229133,-26.4630873470786
4.72,727.6393457460789,148.36202754534975,-26.22148498871322
4.74,730.6065862969859,147.8375978455755,-25.98131026543409
4.76,733.5633382538974,147.31797164026682,-25.74309082287346
4.78,736.5096976867028,146.80310982380934,-25.507320800277615
4.8,739.445759883179,146.2929634078038,-25.27446206207678
4.82,742.371619151335,145.78747416656225,-25.044945545062326
4.84,745.2873686346663,145.286575255661,-24.819172697985604
4.86,748.1931001397795,144.7901918017013,-24.59751699262599
4.88,751.0889039758135,144.2982414618488,-24.380325487594476
4.9,753.9748688050505,143.8106349520969,-24.16792042830915
4.92,756.8510815040925,143.32727654353073,-23.9606008686731
4.94,759.7176270349631,142.84806452615726,-23.758644301982997
4.96,762.5745883254863,142.3728916401176,-23.562308290483188
4.98,765.4220461582886,141.9016454743079,-23.37183208474636
5.0,768.2600790677748,141.434208832613,-23.18743822570218
5.0200000000000005,771.088763244427,140.97046006809896,-23.00933412364826
5.04,773.908172445789,140.510273385626,-22.837713609965142
5.0600000000000005,776.7183779135015,140.0535191134267,-22.67275845852283
5.08,779.5194482957701,139.60006394425622,-22.51463987491558
5.1000000000000005,782.3114495746552,139.1497711467579,-22.36346400209466
5.12,785.0944449975904,138.702501866716,-22.219015519808995
5.14,787.8684950349246,138.25812155631982,-22.08097722078714
5.16,790.6336574660511,137.81650201190408,-21.949046836479326
5.18,793.3899875062891,137.37752107517449,-21.822936811016078
5.2,796.1375379277926,136.94106233895417,-21.702373230866208
5.22,798.8763591745717,136.50701487433685,-21.587094833639725
5.24,801.6064994720584,136.07527297766404,-21.47685209450582
5.26,804.3280049316118,135.64573593577393,-21.371406383387036
5.28,807.0409196503273,135.21830780810618,-21.270529186760065
5.3,809.7452858064894,134.79289722437096,-21.174001388522484
5.32,812.4411437509768,134.36941719660052,-21.081612604944315
5.34,815.1285320949088,133.94778494450165,-20.99316056922156
5.36,817.8074877937988,133.5279217331172,-20.908450561593575
5.38,820.4780462284612,133.10975272188534,-20.82729488138365
5.4,823.1402412828988,132.69320682425766,-20.749512357677048
5.42,825.794105419384,132.2782165771041,-20.67492789566974
5.44,828.4396697509261,131.86471801919072,-20.60337205600604
5.46,831.07696411131,131.4526505780706,-20.534680664680074
5.48,833.7060171228713,131.041956964777,-20.46869445130624
5.5,836.3268562621669,130.6325830757509,-20.405258713771282
5.5200000000000005,838.9395079236818,130.22447790147547,-20.34422300746718
5.54,841.5439974817114,129.81759344132612,-20.285440857472388
5.5600000000000005,844.1403493505379,129.41188462417668,-20.228769492200747
5.58,846.7285870430214,129.00730923433267,-20.17406959717399
5.6000000000000005,849.3087332277081,128.6038278423892,-20.121205087697717
5.62,851.8808097845559,128.20140374063524,-20.07004289933178
5.64,854.4448378593686,127.80000288264861,-20.020452795146916
5.66,857.0008379170216,127.39959382674567,-19.972307188850007
5.68,859.5488297935565,127.00014768296867,-19.925480982942226
5.7,862.0888327472159,126.60163806330984,-19.879851421147986
5.72,864.6208655084821,126.20404103488687,-19.835297954418607
5.74,867.1449463291798,125.8073350757985,-19.791702119874273
5.76,869.6610930306957,125.41150103340102,-19.7489474321008
5.78,872.1693230513638,125.016522084759,-19.706919286265006
5.8,874.669653493059,124.6223836990337,-19.665504872554934
5.82,877.1621011670396,124.22907360158261,-19.62459310148789
5.84,879.6466826390713,123.83658173955286,-19.58407453966217
5.86,882.1234142738623,123.44490024875961,-19.543841355556623
5.88,884.5923122788375,123.05402342164848,-19.503787275006708
5.9,887.0533927472705,122.66394767614834,-19.463807546006322
5.92,889.5066717007935,122.27467152522821,-19.423798912502193
5.94,891.9521651312981,121.88619554697817,-19.38365959686159
5.96,894.3898890422377,121.49852235504093,-19.34328929070526
5.98,896.8198594893385,121.11165656922682,-19.302589153805776
6.0,899.242092620723,120.72560478615071,-19.261461820757084
6.0200000000000005,901.656604716446,120.34037554973557,-19.219811415124205
6.04,904.0634122274407,119.95597932143309,-19.17754357078293
6.0600000000000005,906.4625318138694,119.57242845001743,-19.1345654912775
6.08,908.8539803828697,119.18973714019188,-19.090814345123786
6.1000000000000005,911.2377751256736,118.8079208532894,-19.04630909996027
6.12,913.6139335427393,118.4269946712902,-19.001083025074784
6.140000000000001,915.9824734361652,118.0469730107887,-18.955169111184702
6.16,918.3434128963809,117.66786962856501,-18.90860002228837
6.18,920.6967702889522,117.28969762811924,-18.86140808135495
6.2,923.0425642415146,116.91246946649214,-18.81362525702821
6.22,925.3808136308444,116.53619696135158,-18.765283151252987
6.24,927.7115375700714,116.16089129832652,-18.716412987807466
6.26,930.0347553960379,115.78656303857036,-18.667045601723373
6.28,932.3504866568093,115.4132221265359,-18.617211429575548
6.3,934.65875109934,115.04087789794438,-18.566940500621172
6.32,936.9595686572989,114.66953908793197,-18.516262428768492
6.34,939.2529594390575,114.2992138393566,-18.465206405354003
6.36,941.5389437158445,113.92990971124952,-18.41380119270658
6.38,943.8175419100695,113.56163368739539,-18.36207511847657
6.4,946.0887745838174,113.19439218502585,-18.31005607070747
